Time (s),Ux,Uy,Uz,k,omega,p
1,0.496882331491,0.285699368475,0.293463570314,1,3.14022365966e-05,1
2,0.396444400768,0.170332856217,0.184819992083,0.270116213909,4.00528566056e-05,0.412842346996
3,0.303987123962,0.124364964389,0.14640680269,0.157350211318,4.48934049565e-05,0.329705781418
4,0.20881992355,0.11041257494,0.132107661509,0.105367948886,4.53946805405e-05,0.378683817861
5,0.150027395155,0.101104969217,0.102824654832,0.0748461935915,4.56296041072e-05,0.43259706346
6,0.120734917981,0.0925519129629,0.0851003260115,0.0562871485389,4.29461786763e-05,0.461356030729
7,0.102954074602,0.0817143916705,0.0777176472219,0.0452920981897,4.01056583562e-05,0.418491333831
8,0.094538922644,0.0772151104901,0.0702740802339,0.0386398546057,3.73158355319e-05,0.356672325472
9,0.0843638197367,0.0613803441743,0.0575318785594,0.0343639665,3.55486371572e-05,0.321602643168
10,0.0701359436983,0.0443107002452,0.0441426846017,0.0312299409963,3.41911914791e-05,0.319097054818
11,0.0576356315068,0.0338659814968,0.0352346773545,0.028700458502,3.36961889972e-05,0.317631615907
12,0.0498086612674,0.0284165173117,0.0300965244254,0.0265986042418,3.36672422121e-05,0.307351195663
13,0.0451219850437,0.0247041162512,0.0267261545469,0.0248208894948,3.39602665725e-05,0.281524501358
14,0.0417902685404,0.0217787822291,0.0244291016853,0.0232940540471,3.38353572008e-05,0.257269790273
15,0.0391248440817,0.0193350834343,0.0224665588561,0.0219677452525,3.39034859217e-05,0.244281551413
16,0.0364065423831,0.0172812044786,0.0205084533515,0.0208031826806,3.37517330798e-05,0.236227903797
17,0.0336823290985,0.0157638080447,0.0186806209197,0.0197712215853,3.40003681781e-05,0.228328956939
18,0.0314904877333,0.0147556174908,0.0171666324866,0.0188511720419,3.41513131225e-05,0.216662151741
19,0.0300044534895,0.0139249172147,0.0160510571797,0.0180242711008,3.44085345897e-05,0.204359224365
20,0.0290168340311,0.0131489670829,0.0152294947191,0.0172760153449,3.46314148456e-05,0.192431036972
21,0.0282585735852,0.0124337849031,0.0145333851754,0.01659448393,3.48662791015e-05,0.185574297928
22,0.027442398818,0.011831614629,0.013847334379,0.0159708581418,3.51797787815e-05,0.180017432063
23,0.0265195524271,0.0113922041717,0.0131642278906,0.0153987850066,3.55708872872e-05,0.174884333141
24,0.0256263613246,0.0110356688308,0.012561135212,0.0148712644675,3.59855975682e-05,0.169139936102
25,0.0246789490041,0.0106831140025,0.0120591321996,0.0143818509524,3.62823092942e-05,0.163087722043
26,0.0237052543758,0.0103313875487,0.0116369571859,0.0139255099846,3.66002774411e-05,0.15705078314
27,0.022732270437,0.0100278486123,0.0112587619669,0.0134981191136,3.70309483234e-05,0.152182647414
28,0.0217557065277,0.00979032481774,0.0109025623436,0.0130960862887,3.7443838756e-05,0.148487211835
29,0.0208155469724,0.00959351532611,0.010567304283,0.0127142109951,3.77657726725e-05,0.145363985375
30,0.0199271205695,0.00939751660182,0.0102669772334,0.0123505522349,3.79873750206e-05,0.142253410331
31,0.01911543259,0.00920320328101,0.0100017286061,0.0120041735835,3.83790307643e-05,0.138922550323
32,0.0183704887092,0.00902693309751,0.00976703779416,0.0116740894184,3.88463152616e-05,0.136257380757
33,0.0176788565488,0.00887625752029,0.00955651500593,0.0113586146681,3.92650213921e-05,0.134014134962
34,0.0170253149981,0.00875175871249,0.00936874230428,0.0110562784375,3.96273237951e-05,0.131945383814
35,0.0164108643266,0.00863204992087,0.0092026515805,0.0107666812018,4.0011881804e-05,0.13045174573
36,0.0158224712656,0.00852106502091,0.00904175404696,0.0104895544532,4.03410106431e-05,0.129331930087
37,0.0153280000202,0.00841456091282,0.00889424047674,0.0102247486474,4.07072824315e-05,0.128879470175
38,0.0149150999685,0.00831313319951,0.00878466603073,0.00997195978227,4.10827784053e-05,0.128611885073
39,0.0145397584532,0.00822794636277,0.00870362291459,0.00973021468618,4.12895890898e-05,0.129026194984
40,0.0141700248658,0.00816478717987,0.00862488051338,0.0094992232687,4.14440143009e-05,0.129436723652
41,0.0138310286484,0.00809899465067,0.0085514116575,0.00927785449796,4.15629451034e-05,0.130413412086
42,0.01354117361,0.00802883003815,0.00849450287321,0.00906545389509,4.16899914794e-05,0.130588433661
43,0.0132819386441,0.00795952554343,0.00845006795059,0.00886156460342,4.181356193e-05,0.131981834248
44,0.0130419457852,0.00790414404595,0.00841769912524,0.00866569020436,4.20350048386e-05,0.133200306051
45,0.0128459981518,0.0078538593444,0.00839913007563,0.00847713710096,4.22693987425e-05,0.134074862321
46,0.0126670993589,0.00781407859835,0.00838473061268,0.00829549970138,4.25076134954e-05,0.135640867584
47,0.0125138114241,0.00777841808613,0.00837601827699,0.00812074726829,4.27603320314e-05,0.137500274666
48,0.0124138433538,0.00774795267819,0.008376613639,0.00795248345733,4.29842572695e-05,0.139438801875
49,0.0123326535706,0.00772794690823,0.00838042678595,0.00779018771658,4.32390790414e-05,0.140926526364
50,0.012260144008,0.00771180679877,0.00838693312723,0.00763327446788,4.35299225706e-05,0.142426121843
51,0.0121870851154,0.00769946876684,0.00839380757448,0.00748168023069,4.37692980947e-05,0.144075604492
52,0.0121370362345,0.00768702828625,0.0084042514501,0.00733525581752,4.38763924731e-05,0.145034398502
53,0.0121016622013,0.00767939947802,0.00841997552979,0.00719358614392,4.38950924382e-05,0.145401333129
54,0.0120853238677,0.0076759921726,0.00844601529039,0.0070562013395,4.38602134232e-05,0.145964385201
55,0.0120848030906,0.00768104456934,0.00846508096635,0.00692354380902,4.38127469401e-05,0.147247188931
56,0.0120856974326,0.00769972441287,0.00848648801358,0.00679526072757,4.37948768729e-05,0.148890608354
57,0.0121115589226,0.0077370949001,0.00850540052658,0.00667131370212,4.38358545565e-05,0.149879244833
58,0.0121395803757,0.0077863570483,0.00852397565146,0.00655110904423,4.38290637336e-05,0.151064774924
59,0.0121768990615,0.00782734383027,0.00853995717481,0.00643466197288,4.3780319041e-05,0.152201094627
60,0.0122192716198,0.00786077379748,0.00855657574237,0.0063218064828,4.37221618188e-05,0.152732896926
61,0.0122744657687,0.00788574856025,0.00857984979567,0.00621233253307,4.3627703838e-05,0.152987707827
62,0.0123294510261,0.00791962801548,0.00860495360727,0.00610641462813,4.35758100998e-05,0.153417676263
63,0.0123831590188,0.00794901792842,0.00862391379828,0.00600360471512,4.3477174169e-05,0.153436195868
64,0.0124348230021,0.00798000475974,0.00863939971723,0.0059041167468,4.34378127652e-05,0.153114004748
65,0.0124876211808,0.0080084080346,0.00866057019362,0.00580749870919,4.34544933469e-05,0.153060420126
66,0.0125435756814,0.00803959585302,0.00868894040323,0.00571408277414,4.35038569116e-05,0.153356295147
67,0.0125943986396,0.00807568134008,0.00871630982636,0.00562329924288,4.3517235464e-05,0.153621119597
68,0.0126195926495,0.00811888670442,0.00874478352433,0.00553529526725,4.35112025595e-05,0.15379328585
69,0.0126292515479,0.00816081293678,0.00876611591847,0.00544996999363,4.34430836559e-05,0.154270496319
70,0.012641795332,0.00820725563737,0.00878693512756,0.00536686468673,4.33442391021e-05,0.154921561268
71,0.0126716409074,0.00825593856172,0.00881823272903,0.00528663313245,4.3263862203e-05,0.155556518112
72,0.0127087635719,0.00831097932668,0.00885663201855,0.00520900473212,4.32317490329e-05,0.156088043847
73,0.0127341997998,0.00837541422338,0.0088912152604,0.00513347887683,4.32912005793e-05,0.15697440662
74,0.0127368808994,0.00844275935077,0.008921771808,0.00506032942422,4.32702330022e-05,0.157386378143
75,0.0127264195175,0.00850389645654,0.00894829725818,0.00498862910965,4.31845571618e-05,0.157390400607
76,0.0126874238045,0.00855942418326,0.00896607693752,0.0049187652591,4.30221047138e-05,0.156484459466
77,0.012616011192,0.00860312846231,0.00897646313042,0.00485084474864,4.28353539713e-05,0.154743293708
78,0.0125103861967,0.00863311210842,0.00896863450876,0.00478475364624,4.26835085375e-05,0.153009231407
79,0.0123812058562,0.00864708111418,0.00894128069147,0.00472080118415,4.26026958442e-05,0.151419901616
80,0.0122329249481,0.00863991871011,0.00890118051987,0.00465862887772,4.24890079092e-05,0.15037107372
81,0.0120710702639,0.00862768887523,0.00885752001734,0.00459776732254,4.2350169247e-05,0.149341627829
82,0.0119294735821,0.00861045407139,0.00881384028196,0.00453854042677,4.22700695032e-05,0.147766520844
83,0.0117998031045,0.00858480926607,0.00876784059084,0.00448078761412,4.22466040789e-05,0.146706774787
84,0.0116840884435,0.00854441692704,0.00871556322527,0.00442503874647,4.22578333516e-05,0.145806996152
85,0.0115687971785,0.00849454948639,0.00865665035948,0.00437064383171,4.23006658017e-05,0.145084141529
86,0.0114566399217,0.00844641358568,0.00858829402076,0.00431755096604,4.2368804261e-05,0.144329321574
87,0.0113408763361,0.0083922305061,0.00851911328448,0.00426588420877,4.24280172826e-05,0.143565949394
88,0.0112231885229,0.00832552219535,0.00844678721402,0.00421498379532,4.2439096846e-05,0.142109793413
89,0.0111006045635,0.00825460367085,0.0083683401356,0.00416626742197,4.24743778827e-05,0.140364706573
90,0.0109735372639,0.00819066676737,0.00828923444134,0.00411879514173,4.2484819444e-05,0.139350692841
91,0.0108450272603,0.00813413492444,0.00820687147896,0.00407315373114,4.25199993011e-05,0.138025040754
92,0.0107192583538,0.00807091014202,0.0081207479389,0.00402871747293,4.2560930452e-05,0.136826246385
93,0.0105889642838,0.00800230828953,0.00803449046276,0.00398555021922,4.25495857372e-05,0.135728546634
94,0.0104495517045,0.0079392670916,0.00794256648634,0.00394345984166,4.25855872324e-05,0.134707118006
95,0.0103101524039,0.00788207207111,0.00786081355142,0.0039026973387,4.26250510909e-05,0.134076060394
96,0.0101922557017,0.00783204773672,0.00778560477306,0.00386276363712,4.26335696455e-05,0.133894814355
97,0.01009627209,0.00778510167457,0.00772156317281,0.00382434856897,4.26494895445e-05,0.133751580065
98,0.010015715007,0.00773756554778,0.00766092574294,0.00378713247685,4.27128026402e-05,0.133941852727
99,0.00994571891385,0.00769413372919,0.00760587083317,0.00375057337199,4.27358555686e-05,0.134084084034
100,0.00990199856103,0.00765367226821,0.00755888882471,0.00371517741198,4.28535569364e-05,0.134315078594
101,0.00986004896777,0.00760915761035,0.00751027738975,0.00368042992524,4.29450628621e-05,0.134543100363
102,0.00981410218859,0.00755827696079,0.00746249604711,0.00364692860461,4.30354145406e-05,0.134396812588
103,0.0097838986402,0.00750803341818,0.00742068070199,0.00361399610627,4.30680728382e-05,0.134496871757
104,0.00976958499147,0.0074598252553,0.00738883249213,0.00358217829124,4.30939248473e-05,0.134665863447
105,0.00976097277827,0.00741746563122,0.0073611228268,0.00355185075756,4.32621089923e-05,0.135787143541
106,0.00975957392419,0.00737788021208,0.00733343327536,0.00352214289236,4.33493329656e-05,0.136640575934
107,0.009758583754,0.0073368271449,0.00730828015295,0.00349314493557,4.34379210442e-05,0.137522576768
108,0.00976496035392,0.00729393312675,0.00728117521836,0.00346503809183,4.35159281374e-05,0.139114616345
109,0.00977349679807,0.00725465926074,0.00725621350995,0.00343779049626,4.35977065754e-05,0.14013768521
110,0.00978279553738,0.00722465968201,0.00722535771217,0.00341087706177,4.36559182519e-05,0.141029447545
111,0.00978281701277,0.00719434624131,0.00719182675122,0.00338507033829,4.37494568199e-05,0.142194400538
112,0.00977096681342,0.00716132572702,0.00715703683839,0.00335973761429,4.38305114504e-05,0.143920697198
113,0.00976416179214,0.00713226721237,0.00711789897184,0.00333502036624,4.39537470269e-05,0.14545505035
114,0.00976059164144,0.0071167935425,0.0070826060845,0.00331058541522,4.40580408085e-05,0.146424554866
115,0.00976698774931,0.00709544676798,0.00705151636742,0.00328777667099,4.41101364895e-05,0.1471211191
116,0.00976994650241,0.0070789371123,0.00702325612237,0.00326549646413,4.41819454538e-05,0.147675051429
117,0.00976239391973,0.00705894645236,0.00700025121037,0.00324426269465,4.43098608291e-05,0.148489878022
118,0.00975180205264,0.00702926986695,0.00697940856689,0.00322392619358,4.44123113034e-05,0.149143911358
119,0.00975494155057,0.00700464572115,0.00696710551019,0.0032039153914,4.44931430564e-05,0.149687108721
120,0.00977058947661,0.00699442352395,0.006950766566,0.00318426574193,4.456390935e-05,0.150517922612
121,0.00979392104079,0.00698528661272,0.00693105461749,0.00316439471398,4.46032257282e-05,0.151761382592
122,0.00980720682851,0.00698126018849,0.00691507693843,0.00314496724995,4.46493773664e-05,0.152727687509
123,0.00979963564201,0.00696534213203,0.00690118542659,0.00312563697461,4.4736376753e-05,0.153501001639
124,0.00976125982192,0.00694251515882,0.00688935065615,0.00310703008976,4.48299093071e-05,0.153324208621
125,0.00971926821574,0.00692622787287,0.00687766733341,0.00308944682415,4.49399747163e-05,0.15327720456
126,0.00967805065727,0.00691368436897,0.00686381714796,0.00307297416692,4.49890787683e-05,0.154041346363
127,0.00963940849294,0.00690805424649,0.00684917799232,0.00305856737097,4.50775788593e-05,0.154754055725
128,0.00957539789658,0.00690976554271,0.00683250599565,0.00304601308789,4.51467390311e-05,0.156087954902
129,0.00950640376391,0.00691077439663,0.00682657946632,0.00303524905464,4.52754339647e-05,0.156865830016
130,0.00943710099135,0.00691824161296,0.00681895297584,0.00302460202448,4.53536817115e-05,0.156785895588
131,0.00936917900386,0.00692405236443,0.00681219309298,0.00301422994101,4.54393870462e-05,0.156350951507
132,0.00931552455279,0.00692900562396,0.0068054433099,0.00300417446734,4.55116461009e-05,0.156726712255
133,0.00925427308043,0.00692872261585,0.00680101582865,0.00299409480911,4.56515884508e-05,0.15686999493
134,0.00918776792185,0.00692830201121,0.0067905726445,0.00298454853535,4.5741802383e-05,0.156083290072
135,0.00912269061141,0.00692161091747,0.00677351581838,0.00297538317081,4.58091093482e-05,0.155107092108
136,0.00905511866017,0.00691521567591,0.00675212183834,0.00296615729451,4.57490495611e-05,0.154194523517
137,0.00897594502204,0.00691534651205,0.00673258736233,0.00295592860417,4.57004745361e-05,0.152920806611
138,0.0089114718245,0.00692288474308,0.00671725897326,0.00294681070006,4.57121922171e-05,0.152492934222
139,0.00887302435054,0.00693024543302,0.00671049224069,0.00293799562212,4.56875130155e-05,0.152678918127
140,0.00885089699923,0.00692883660463,0.00670532145932,0.00292894683468,4.56678034359e-05,0.153225284544
141,0.00883874023691,0.00691976194923,0.00669639132538,0.00292204644225,4.56757414061e-05,0.15320299058
142,0.00881633498704,0.00688624845661,0.0066873599475,0.00291407324892,4.57180295844e-05,0.152040364432
143,0.00878318905195,0.0068425337742,0.00666732967212,0.00290608486634,4.55216926499e-05,0.150853302718
144,0.00874551343024,0.00679961319878,0.00664204482314,0.00289558403279,4.53070028683e-05,0.149630265451
145,0.00869900037182,0.00675905468948,0.00660709238084,0.00288697994854,4.51246626753e-05,0.148580865472
146,0.008647706349,0.00672324676939,0.00656526757217,0.00287635812922,4.49908589331e-05,0.147825422683
147,0.00860966653443,0.00669116879735,0.00651117122181,0.00286732320912,4.48983764177e-05,0.146952647982
148,0.00857136516421,0.00666732555354,0.00644929436616,0.00285683342736,4.48354715007e-05,0.145398378887
149,0.0085346796408,0.0066410456328,0.00638168519673,0.00284782612518,4.48381578952e-05,0.143773103873
150,0.00850888876028,0.00661438936249,0.00631118531075,0.0028402904466,4.49081326887e-05,0.142762328651
151,0.00848361514708,0.00658726555806,0.00623455429644,0.0028334654096,4.49479358895e-05,0.141870153265
152,0.00847284157986,0.0065677441367,0.00616135288513,0.00282522530366,4.49885366241e-05,0.14067530344
153,0.00846612249191,0.00655131526003,0.00609083583391,0.00281691786757,4.50107945582e-05,0.139431808246
154,0.00846296043495,0.00652700860214,0.00602650888234,0.00280954562398,4.50985716724e-05,0.138275047739
155,0.00846263682866,0.00649852760853,0.00596480811365,0.00280114964683,4.50933250859e-05,0.13696472218
156,0.00846223548196,0.0064728345899,0.00590461445359,0.00279242386282,4.50708556016e-05,0.136016158301
157,0.00845694536684,0.00645545787222,0.00584402568319,0.00278456989879,4.50327868711e-05,0.13537318204
158,0.00844938963795,0.00644521836546,0.00578171247938,0.00277709614563,4.50001744496e-05,0.134815774477
159,0.00844554035357,0.00643284889717,0.00572931345759,0.00277078023568,4.49748542751e-05,0.133795990633
160,0.00845533207944,0.00643400783597,0.00568492388939,0.0027657926589,4.50076202956e-05,0.132818549428
161,0.00847147048566,0.00645743828782,0.00564710861257,0.00276309609066,4.50445591336e-05,0.132846581275
162,0.00848751084687,0.00648839426667,0.0056144859764,0.00276059316686,4.50049764989e-05,0.133135127661
163,0.00850831141134,0.00652215654383,0.00558181806433,0.00275718149163,4.49591670394e-05,0.133494306319
164,0.0085385188499,0.00655633632726,0.00554862745136,0.00275355548281,4.49179213104e-05,0.133927099797
165,0.00857436989742,0.00658503986985,0.0055211676047,0.00275087729733,4.49111420237e-05,0.134328201245
166,0.00859841480427,0.00660005130856,0.00549538147597,0.00274810353675,4.47911043218e-05,0.134814193412
167,0.00861839314768,0.00661260863209,0.00547147433474,0.00274628530831,4.4703268492e-05,0.135277443743
168,0.00863121766803,0.00662064800861,0.00544979891223,0.00274445056474,4.4680832965e-05,0.135513369669
169,0.00865224385404,0.0066288424681,0.00543773435689,0.00274263088986,4.46250559469e-05,0.135173568097
170,0.00867374370788,0.0066331242206,0.00543164465357,0.00274178662419,4.45111471063e-05,0.13507382757
171,0.00868515153072,0.00663387581322,0.00542514645014,0.00273995298033,4.44225543612e-05,0.135299965854
172,0.0086907005458,0.00663197215418,0.00541865214174,0.00273533707216,4.43587806093e-05,0.135386523683
173,0.00870284574965,0.00662785866457,0.00541636444138,0.00273174276706,4.42787663725e-05,0.135432515358
174,0.00870973477249,0.00661203097426,0.00541352028676,0.00272632898351,4.41101174441e-05,0.135479060412
175,0.00871360523545,0.00659011664516,0.00541091217508,0.002723206614,4.39096890844e-05,0.135706599771
176,0.00871709295818,0.00656853774985,0.00540798715562,0.00272294905784,4.36525531996e-05,0.135962628518
177,0.00871944454703,0.00655320473617,0.00540726183156,0.00272418273238,4.34340983279e-05,0.136693345685
178,0.00872053567286,0.00654543904141,0.00540859219505,0.00272770338487,4.3288732093e-05,0.137677969072
179,0.00872137695404,0.00653714889013,0.00541637722576,0.00273249696047,4.30978544738e-05,0.138191310028
180,0.00873791881691,0.00652966014559,0.00543244565681,0.00273900511882,4.29077618067e-05,0.138494700018
181,0.00876883734422,0.0065207779296,0.00545065447522,0.00274391837967,4.27206712556e-05,0.138919608772
182,0.0088011679114,0.00651793529726,0.00546180677465,0.00274681997949,4.25404079794e-05,0.138915105075
183,0.00881780418114,0.00650918680415,0.00546593930344,0.00274927569382,4.23370126069e-05,0.138930572206
184,0.00883706276818,0.0064847076246,0.00546045639801,0.00275106654918,4.21342766022e-05,0.138881274657
185,0.00886313778865,0.00645358328824,0.00545138367565,0.00275205201103,4.18989828306e-05,0.138604216931
186,0.00889141934529,0.00642845151447,0.00544221964415,0.00275399095969,4.17233111069e-05,0.137800639765
187,0.00892410181275,0.00640287698792,0.00543334026534,0.00275709673246,4.15583395636e-05,0.136392480014
188,0.00896435704652,0.00637857536552,0.00541810574985,0.00276068502411,4.13674782861e-05,0.135498050844
189,0.00899554088797,0.0063576627013,0.00540128050769,0.00276473411451,4.1172666225e-05,0.134819276426
190,0.00904316499299,0.00634534720379,0.00538483074059,0.00276976931006,4.10025074e-05,0.134263286374
191,0.00909665594517,0.00634518171752,0.00536471859768,0.00277740600626,4.08884722823e-05,0.134041412331
192,0.00914107041595,0.00634780445957,0.00534167099864,0.00278569191769,4.08644685613e-05,0.134302289434
